# wavelength[m] Qabs--3e-08nm[1] Qabs--4.5e-08nm[1] Qabs--6e-08nm[1] Qabs--7.5e-08nm[1] Qabs--9e-08nm[1] Solar Intensity[W/m^2/sr] BB intensity@1300K[W/m^2/sr]
2.800000000000000191e-07 1.941220223903656006e+00 1.778815567493438721e+00 1.678146004676818848e+00 1.650488495826721191e+00 1.600216388702392578e+00 2.536099999999999868e-26 4.515082739444385357e-10
2.807673060884070128e-07 1.931685149669647217e+00 1.785866498947143555e+00 1.680037856101989746e+00 1.651008605957031250e+00 1.599292874336242676e+00 3.782723853210839338e-24 4.962389208590729558e-10
2.815346121768140065e-07 1.922107040882110596e+00 1.792637050151824951e+00 1.681673049926757812e+00 1.651310563087463379e+00 1.598260641098022461e+00 4.519911926603969761e-22 5.450999438494678402e-10
2.823019182652210532e-07 1.913081288337707520e+00 1.799034476280212402e+00 1.683039188385009766e+00 1.651383876800537109e+00 1.597117424011230469e+00 9.136479566305973089e-21 5.984441875599609209e-10
2.830692243536280469e-07 1.904333472251892090e+00 1.805113911628723145e+00 1.684152126312255859e+00 1.651242971420288086e+00 1.595867991447448730e+00 7.851339282735502703e-20 6.566521171940279333e-10
2.838365304420350406e-07 1.895553529262542725e+00 1.810927867889404297e+00 1.685027241706848145e+00 1.650900006294250488e+00 1.594516992568969727e+00 3.402179716430401424e-18 7.201337745901182936e-10
2.846038365304420344e-07 1.886743426322937012e+00 1.816477060317993164e+00 1.685668706893920898e+00 1.650358438491821289e+00 1.593065857887268066e+00 3.582343786488234793e-17 7.893308573848120466e-10
2.853711426188490810e-07 1.877906024456024170e+00 1.821762144565582275e+00 1.686080574989318848e+00 1.649620652198791504e+00 1.591515064239501953e+00 5.014036547122905507e-16 8.647189279584061427e-10
2.861384487072560748e-07 1.869042873382568359e+00 1.826783657073974609e+00 1.686266660690307617e+00 1.648689150810241699e+00 1.589865803718566895e+00 6.810480483737228630e-15 9.468097591585190134e-10
2.869057547956630685e-07 1.860157012939453125e+00 1.831542134284973145e+00 1.686230897903442383e+00 1.647565722465515137e+00 1.588118672370910645e+00 6.235174228523742045e-14 1.036153824107365375e-09
2.876730608840700622e-07 1.851249694824218750e+00 1.836038053035736084e+00 1.685976743698120117e+00 1.646251440048217773e+00 1.586273312568664551e+00 1.210689424520387751e-12 1.133342937718875136e-09
2.884403669724771089e-07 1.842659413814544678e+00 1.839666724205017090e+00 1.685468673706054688e+00 1.644590020179748535e+00 1.584437131881713867e+00 8.318613761468144676e-12 1.239013057882520232e-09
2.892076730608841026e-07 1.835547685623168945e+00 1.841636538505554199e+00 1.684976220130920410e+00 1.642769217491149902e+00 1.583193302154541016e+00 8.428041534612933858e-11 1.353847254612213497e-09
2.899749791492910963e-07 1.828415095806121826e+00 1.843441426753997803e+00 1.684359550476074219e+00 1.640807271003723145e+00 1.581874966621398926e+00 4.964819516263502292e-10 1.478578855810609748e-09
2.907422852376980900e-07 1.821262776851654053e+00 1.845082521438598633e+00 1.683623909950256348e+00 1.638708114624023438e+00 1.580483913421630859e+00 2.573804753961644447e-09 1.613994778661714951e-09
2.915095913261050838e-07 1.814092218875885010e+00 1.846560716629028320e+00 1.682774543762207031e+00 1.636475682258605957e+00 1.579022169113159180e+00 1.493073144286697119e-08 1.760939056039235755e-09
2.922768974145121304e-07 1.806904673576354980e+00 1.847877740859985352e+00 1.681816935539245605e+00 1.634113907814025879e+00 1.577491164207458496e+00 5.719517180984300804e-08 1.920316567702241632e-09
2.930442035029191241e-07 1.799701929092407227e+00 1.849034428596496582e+00 1.680755972862243652e+00 1.631626129150390625e+00 1.575892448425292969e+00 1.853023352793891042e-07 2.093096986446734187e-09
2.938115095913261179e-07 1.792484939098358154e+00 1.850446105003356934e+00 1.679137468338012695e+00 1.628599643707275391e+00 1.573580503463745117e+00 7.666535946622136538e-07 2.280318949789124692e-09
2.945788156797331116e-07 1.785255074501037598e+00 1.852054953575134277e+00 1.675094604492187500e+00 1.623021721839904785e+00 1.568367242813110352e+00 1.853139616346949373e-06 2.483094468176463602e-09
2.953461217681401583e-07 1.778026103973388672e+00 1.853035330772399902e+00 1.670526981353759766e+00 1.616944789886474609e+00 1.562856554985046387e+00 6.544600000000171087e-06 2.702613581149957924e-09
2.961134278565471520e-07 1.770837604999542236e+00 1.853518605232238770e+00 1.665535449981689453e+00 1.610472798347473145e+00 1.557115316390991211e+00 1.668228773978345044e-05 2.940149273330232331e-09
2.968807339449541457e-07 1.763636767864227295e+00 1.853443503379821777e+00 1.660138368606567383e+00 1.603625893592834473e+00 1.551158547401428223e+00 3.083149541284379495e-05 3.197062662547494582e-09
2.976480400333611394e-07 1.756424725055694580e+00 1.852825880050659180e+00 1.654371619224548340e+00 1.596429824829101562e+00 1.545000910758972168e+00 8.074943953294405337e-05 3.474808472906620779e-09
2.984153461217681331e-07 1.749202966690063477e+00 1.851682543754577637e+00 1.648267984390258789e+00 1.588909864425659180e+00 1.538655281066894531e+00 1.373786572143432074e-04 3.774940806054929866e-09
2.991826522101751798e-07 1.741972148418426514e+00 1.850029468536376953e+00 1.641859769821166992e+00 1.581089735031127930e+00 1.532134175300598145e+00 2.655618932443779196e-04 4.099119224411857593e-09
2.999499582985821735e-07 1.734733670949935913e+00 1.847882866859436035e+00 1.635176420211791992e+00 1.572992682456970215e+00 1.525449037551879883e+00 4.480581234361945189e-04 4.449115160621941370e-09
3.007172643869891673e-07 1.727489054203033447e+00 1.845259308815002441e+00 1.628245711326599121e+00 1.564640402793884277e+00 1.518610000610351562e+00 7.229340450375259554e-04 4.826818668008420975e-09
3.014845704753961610e-07 1.720239102840423584e+00 1.841915726661682129e+00 1.623163461685180664e+00 1.557611584663391113e+00 1.513657331466674805e+00 1.307730458715599363e-03 5.234245527330604552e-09
3.022518765638032076e-07 1.712984800338745117e+00 1.838163733482360840e+00 1.619120121002197266e+00 1.551296353340148926e+00 1.509700298309326172e+00 1.826754795663074801e-03 5.673544725690492419e-09
3.030191826522102014e-07 1.705637902021408081e+00 1.834305047988891602e+00 1.615053534507751465e+00 1.544949531555175781e+00 1.505668759346008301e+00 3.774296914095131954e-03 6.147006323982904840e-09
3.037864887406171951e-07 1.698267877101898193e+00 1.830339550971984863e+00 1.610963344573974609e+00 1.538577556610107422e+00 1.501565098762512207e+00 4.972225104253535748e-03 6.657069729851446515e-09
3.045537948290241888e-07 1.690896838903427124e+00 1.826267957687377930e+00 1.606850504875183105e+00 1.532187938690185547e+00 1.497390985488891602e+00 6.732826855713050680e-03 7.206332393686455685e-09
3.053211009174311825e-07 1.683526247739791870e+00 1.822075843811035156e+00 1.602700591087341309e+00 1.525769352912902832e+00 1.493134498596191406e+00 9.737893577981540302e-03 7.797558945792523255e-09
3.060884070058382292e-07 1.676156818866729736e+00 1.814921021461486816e+00 1.598696351051330566e+00 1.518286705017089844e+00 1.488961935043334961e+00 1.040072226855718630e-02 8.433690793454071799e-09
3.068557130942452229e-07 1.668789386749267578e+00 1.808277606964111328e+00 1.594931960105895996e+00 1.511247634887695312e+00 1.484960913658142090e+00 1.418462552126767418e-02 9.117856197240626201e-09
3.076230191826522166e-07 1.661425113677978516e+00 1.802019238471984863e+00 1.590890169143676758e+00 1.504241228103637695e+00 1.480699539184570312e+00 1.978415929941615414e-02 9.853380846522768046e-09
3.083903252710592104e-07 1.654065042734146118e+00 1.796143889427185059e+00 1.586534738540649414e+00 1.497270226478576660e+00 1.476183652877807617e+00 2.231195913261034905e-02 1.064379895480396604e-08
3.091576313594662570e-07 1.646709918975830078e+00 1.793209552764892578e+00 1.586398124694824219e+00 1.494627475738525391e+00 1.475413441658020020e+00 2.273117097581320994e-02 1.149286489612859028e-08
3.099249374478732508e-07 1.639360815286636353e+00 1.791513562202453613e+00 1.588447690010070801e+00 1.494097471237182617e+00 1.476545095443725586e+00 2.720238031693097622e-02 1.240456540448697970e-08
3.106922435362802445e-07 1.631448596715927124e+00 1.789584517478942871e+00 1.590399622917175293e+00 1.493558168411254883e+00 1.477601408958435059e+00 3.953662552126739615e-02 1.338313235881337265e-08
3.114595496246872382e-07 1.623489558696746826e+00 1.787601232528686523e+00 1.592292547225952148e+00 1.493010759353637695e+00 1.478581190109252930e+00 4.609419182652209346e-02 1.443305617686178030e-08
3.122268557130942319e-07 1.615546226501464844e+00 1.785591244697570801e+00 1.594129323959350586e+00 1.492456078529357910e+00 1.479485511779785156e+00 5.219924437030831754e-02 1.555909984194052134e-08
3.129941618015012786e-07 1.607619941234588623e+00 1.783561468124389648e+00 1.595906615257263184e+00 1.491896152496337891e+00 1.480316519737243652e+00 5.826979065888256148e-02 1.676631358719880439e-08
3.137614678899082723e-07 1.599710822105407715e+00 1.781518459320068359e+00 1.597622036933898926e+00 1.491332173347473145e+00 1.481076121330261230e+00 6.227623853211011057e-02 1.806005026288003715e-08
3.145287739783152660e-07 1.591820150613784790e+00 1.779373168945312500e+00 1.598999142646789551e+00 1.490532875061035156e+00 1.481537580490112305e+00 7.066072894078390121e-02 1.944598141269157268e-08
3.152960800667222598e-07 1.583948403596878052e+00 1.778521180152893066e+00 1.604586601257324219e+00 1.493366122245788574e+00 1.486034035682678223e+00 6.844360633861609755e-02 2.093011408617964611e-08
3.160633861551293064e-07 1.576096206903457642e+00 1.777814507484436035e+00 1.610614895820617676e+00 1.496658802032470703e+00 1.491060495376586914e+00 6.886661551292772021e-02 2.251880841476446237e-08
3.168306922435363001e-07 1.568264514207839966e+00 1.777065753936767578e+00 1.616337060928344727e+00 1.499797821044921875e+00 1.495955228805541992e+00 8.898979816513730157e-02 2.421879597984409117e-08
3.175979983319432939e-07 1.560453623533248901e+00 1.776273488998413086e+00 1.621531844139099121e+00 1.502622127532958984e+00 1.500541329383850098e+00 9.894820100083417946e-02 2.603719900216464304e-08
3.183653044203502876e-07 1.552984029054641724e+00 1.774989783763885498e+00 1.628094673156738281e+00 1.506387472152709961e+00 1.505964159965515137e+00 9.890912844036689466e-02 2.798155038243395708e-08
3.191326105087572813e-07 1.545738399028778076e+00 1.773308217525482178e+00 1.634930133819580078e+00 1.510360956192016602e+00 1.511653900146484375e+00 1.089726855713097076e-01 3.005981462395690711e-08
3.198999165971643280e-07 1.538509041070938110e+00 1.771270692348480225e+00 1.641677260398864746e+00 1.514262199401855469e+00 1.517318248748779297e+00 1.116010258548792294e-01 3.228040966887842309e-08
3.206672226855713217e-07 1.531296253204345703e+00 1.768867492675781250e+00 1.648333072662353516e+00 1.518091559410095215e+00 1.522964477539062500e+00 1.334145454545453968e-01 3.465222968043719204e-08
3.214345287739783154e-07 1.524100571870803833e+00 1.766088962554931641e+00 1.654893636703491211e+00 1.521849513053894043e+00 1.528598427772521973e+00 1.289517264386990936e-01 3.718466880445719863e-08
3.222018348623853621e-07 1.516922652721405029e+00 1.762923002243041992e+00 1.661354780197143555e+00 1.525536298751831055e+00 1.534227252006530762e+00 1.210715596330273897e-01 3.988764594414589229e-08
3.229691409507923558e-07 1.509762853384017944e+00 1.759356677532196045e+00 1.667709946632385254e+00 1.529152274131774902e+00 1.539856791496276855e+00 1.164441618015012031e-01 4.277163058310417969e-08
3.237364470391993495e-07 1.502621740102767944e+00 1.754211008548736572e+00 1.677811622619628906e+00 1.535656929016113281e+00 1.549477577209472656e+00 1.408295246038363535e-01 4.584766969231303399e-08
3.245037531276063433e-07 1.495499521493911743e+00 1.746143221855163574e+00 1.691237092018127441e+00 1.544555306434631348e+00 1.562706947326660156e+00 1.546727773144286888e-01 4.912741575772207492e-08
3.252710592160133370e-07 1.488397181034088135e+00 1.735660970211029053e+00 1.704340815544128418e+00 1.553085207939147949e+00 1.576006889343261719e+00 1.682243202668885496e-01 5.262315596592564881e-08
3.260383653044203836e-07 1.481314569711685181e+00 1.722494721412658691e+00 1.717067241668701172e+00 1.561244130134582520e+00 1.589344739913940430e+00 2.096728940783986750e-01 5.634784258630086551e-08
3.268056713928273774e-07 1.475581645965576172e+00 1.705998301506042480e+00 1.729153871536254883e+00 1.568970918655395508e+00 1.602668523788452148e+00 2.196147956630524756e-01 6.031512458885183323e-08
3.275729774812343711e-07 1.470542788505554199e+00 1.685895264148712158e+00 1.740530014038085938e+00 1.576289296150207520e+00 1.615816712379455566e+00 2.106431609674737915e-01 6.453938053791104763e-08
3.283402835696413648e-07 1.465507745742797852e+00 1.665168821811676025e+00 1.750048637390136719e+00 1.582169890403747559e+00 1.626454234123229980e+00 2.038687155963299358e-01 6.903575280271524107e-08
3.291075896580484115e-07 1.460476785898208618e+00 1.649352848529815674e+00 1.757575035095214844e+00 1.585553407669067383e+00 1.632019519805908203e+00 2.384936530442053060e-01 7.382018312681537474e-08
3.298748957464554052e-07 1.455450266599655151e+00 1.632523000240325928e+00 1.765188217163085938e+00 1.588776469230651855e+00 1.637238144874572754e+00 2.610993160967473026e-01 7.890944959914168407e-08
3.306422018348623989e-07 1.450428009033203125e+00 1.614666283130645752e+00 1.772906422615051270e+00 1.591796517372131348e+00 1.642037391662597656e+00 2.374237614678898767e-01 8.432120507049711651e-08
3.314095079232693926e-07 1.445410847663879395e+00 1.595773577690124512e+00 1.780749082565307617e+00 1.594558358192443848e+00 1.646331310272216797e+00 2.349021267723098716e-01 9.007401706013982751e-08
3.321768140116763864e-07 1.440398573875427246e+00 1.575838208198547363e+00 1.788735389709472656e+00 1.596990227699279785e+00 1.650022149085998535e+00 2.455998331943285151e-01 9.618740919804354354e-08
3.329441201000834330e-07 1.435391634702682495e+00 1.553310692310333252e+00 1.798390150070190430e+00 1.599173545837402344e+00 1.653244495391845703e+00 2.430680984153461566e-01 1.026819042493536239e-07
3.337114261884904267e-07 1.430390059947967529e+00 1.528461039066314697e+00 1.809657335281372070e+00 1.600598931312561035e+00 1.655651211738586426e+00 2.350095162635530699e-01 1.095790687684799454e-07
3.344787322768974205e-07 1.425394415855407715e+00 1.502505838871002197e+00 1.821315765380859375e+00 1.600751519203186035e+00 1.656869411468505859e+00 2.536547539616337277e-01 1.169015594311799234e-07
3.352460383653044142e-07 1.420920133590698242e+00 1.475463390350341797e+00 1.833333969116210938e+00 1.599199533462524414e+00 1.656727075576782227e+00 2.619011926605506746e-01 1.246731710939449857e-07
3.360133444537114609e-07 1.418650984764099121e+00 1.447277903556823730e+00 1.845578670501708984e+00 1.595281481742858887e+00 1.654983639717102051e+00 2.376725521267726293e-01 1.329188866309074721e-07
3.367806505421184546e-07 1.416397273540496826e+00 1.418138027191162109e+00 1.858118295669555664e+00 1.588659048080444336e+00 1.651564478874206543e+00 2.191264804003335842e-01 1.416649285994268684e-07
3.375479566305254483e-07 1.414158940315246582e+00 1.392130494117736816e+00 1.870026707649230957e+00 1.579842805862426758e+00 1.647460341453552246e+00 2.361498832360303390e-01 1.509388127864527857e-07
3.383152627189324420e-07 1.411935895681381226e+00 1.374570548534393311e+00 1.880039334297180176e+00 1.571507573127746582e+00 1.645138025283813477e+00 2.609528523769801267e-01 1.607694036886922423e-07
3.390825688073394358e-07 1.409728199243545532e+00 1.357052862644195557e+00 1.889828801155090332e+00 1.561957597732543945e+00 1.642847776412963867e+00 2.722001834862381453e-01 1.711869719805109239e-07
3.398498748957464824e-07 1.407535821199417114e+00 1.339593946933746338e+00 1.899294137954711914e+00 1.551196575164794922e+00 1.640669107437133789e+00 2.911494662218513940e-01 1.822232540244781651e-07
3.406171809841534761e-07 1.405358403921127319e+00 1.322209596633911133e+00 1.908319711685180664e+00 1.539247989654541016e+00 1.638688325881958008e+00 2.926574145120931503e-01 1.939115134803522552e-07
3.413844870725604699e-07 1.403196364641189575e+00 1.304914236068725586e+00 1.916775703430175781e+00 1.526155710220336914e+00 1.636995434761047363e+00 2.787125104253544983e-01 2.062866050692376074e-07
3.421517931609674636e-07 1.401049613952636719e+00 1.287721574306488037e+00 1.924515962600708008e+00 1.511981010437011719e+00 1.635685801506042480e+00 2.947771392827350789e-01 2.193850405505654219e-07
3.429190992493745102e-07 1.398917973041534424e+00 1.270644426345825195e+00 1.931378126144409180e+00 1.496803283691406250e+00 1.634857296943664551e+00 3.076622935779816381e-01 2.332450569704816066e-07
3.436864053377815040e-07 1.396801352500915527e+00 1.253694117069244385e+00 1.937183737754821777e+00 1.480715513229370117e+00 1.634611129760742188e+00 2.779427522935780104e-01 2.479066872410891354e-07
3.444537114261884977e-07 1.394731521606445312e+00 1.236943900585174561e+00 1.941755294799804688e+00 1.463828086853027344e+00 1.635041832923889160e+00 2.452352293577988451e-01 2.634118331109779718e-07
3.452210175145954914e-07 1.393099248409271240e+00 1.221186935901641846e+00 1.945120930671691895e+00 1.446325778961181641e+00 1.636169791221618652e+00 2.869696080066710953e-01 2.798043405882868526e-07
3.459883236030024851e-07 1.391481190919876099e+00 1.205620050430297852e+00 1.946781992912292480e+00 1.428265810012817383e+00 1.638185977935791016e+00 2.914668890742287966e-01 2.971300778784958033e-07
3.467556296914095318e-07 1.389877170324325562e+00 1.190250992774963379e+00 1.946491837501525879e+00 1.409764289855957031e+00 1.641179800033569336e+00 3.003892910758965140e-01 3.154370159000208360e-07
3.475229357798165255e-07 1.388286858797073364e+00 1.175087094306945801e+00 1.943991184234619141e+00 1.390932559967041016e+00 1.645228624343872070e+00 2.934893577981651513e-01 3.347753114415321976e-07
3.482902418682235192e-07 1.386711001396179199e+00 1.160134792327880859e+00 1.939011335372924805e+00 1.371874570846557617e+00 1.650389432907104492e+00 2.964151959966634386e-01 3.551973930258351108e-07
3.490575479566305659e-07 1.385148763656616211e+00 1.145399421453475952e+00 1.931278109550476074e+00 1.352680921554565430e+00 1.656690597534179688e+00 2.896252210175150887e-01 3.767580495459554139e-07
3.498248540450375596e-07 1.383600592613220215e+00 1.130885928869247437e+00 1.920516848564147949e+00 1.333428621292114258e+00 1.664116382598876953e+00 3.179451793160970041e-01 3.995145217399845501e-07
3.505921601334445534e-07 1.382066115736961365e+00 1.116598308086395264e+00 1.906459689140319824e+00 1.314176797866821289e+00 1.672589778900146484e+00 3.531101000834028780e-01 4.235265965720107939e-07
3.513594662218515471e-07 1.380545482039451599e+00 1.102540105581283569e+00 1.888852477073669434e+00 1.294965028762817383e+00 1.681946039199829102e+00 3.372949708090082210e-01 4.488567045873403934e-07
3.521267723102585408e-07 1.379038840532302856e+00 1.088714361190795898e+00 1.867463827133178711e+00 1.275812149047851562e+00 1.691899299621582031e+00 3.223790325271070345e-01 4.755700203110233870e-07
3.528940783986655345e-07 1.377545580267906189e+00 1.075123220682144165e+00 1.842092752456665039e+00 1.256714582443237305e+00 1.701998949050903320e+00 3.254686488740608508e-01 5.037345657594394314e-07
3.536613844870725812e-07 1.376065999269485474e+00 1.061768412590026855e+00 1.812581300735473633e+00 1.237644195556640625e+00 1.711572170257568359e+00 3.705205421184316061e-01 5.334213171356110148e-07
3.544286905754795749e-07 1.374350324273109436e+00 1.048907458782196045e+00 1.778962612152099609e+00 1.218658208847045898e+00 1.719702005386352539e+00 3.896883819849875086e-01 5.647043147795129331e-07
3.551959966638865686e-07 1.372053325176239014e+00 1.039664328098297119e+00 1.751318931579589844e+00 1.206638574600219727e+00 1.724254369735717773e+00 3.864530442035039592e-01 5.976607764456163329e-07
